 ******************************** Static Profile ********************************
                             Exospheric Temperature

  alt           500K           700K          1000K          1500K          2400K
 (km) mmolms logdsty mmolms logdsty mmolms logdsty mmolms logdsty mmolms logdsty
   90  28.91  -5.466  28.91  -5.466  28.91  -5.466  28.91  -5.466  28.91  -5.466
  100  28.36  -6.245  28.36  -6.246  28.36  -6.248  28.36  -6.249  28.36  -6.251
  110  27.23  -7.003  27.25  -7.008  27.28  -7.013  27.30  -7.019  27.32  -7.024
  120  25.90  -7.665  26.03  -7.655  26.15  -7.647  26.25  -7.641  26.35  -7.636
  130  24.79  -8.176  25.11  -8.133  25.36  -8.099  25.57  -8.071  25.76  -8.047
  140  23.76  -8.574  24.28  -8.496  24.68  -8.437  25.01  -8.389  25.29  -8.347
  150  22.73  -8.899  23.49  -8.784  24.06  -8.701  24.51  -8.637  24.89  -8.582
  160  21.94  -9.137  23.19  -8.996  23.77  -8.904  24.09  -8.841  24.50  -8.777
  170  20.88  -9.417  22.30  -9.223  23.15  -9.094  23.66  -9.010  24.18  -8.938
  180  20.01  -9.676  21.41  -9.433  22.47  -9.266  23.25  -9.156  23.90  -9.075
  190  19.29  -9.910  20.66  -9.623  21.84  -9.423  22.87  -9.287  23.65  -9.193
  200  18.63 -10.123  20.05  -9.797  21.31  -9.567  22.51  -9.405  23.41  -9.297
  210  18.03 -10.318  19.51  -9.959  20.84  -9.701  22.17  -9.514  23.18  -9.391
  220  17.52 -10.501  19.03 -10.112  20.43  -9.828  21.84  -9.615  22.96  -9.475
  230  17.10 -10.678  18.57 -10.259  20.04  -9.948  21.53  -9.711  22.75  -9.553
  240  16.76 -10.853  18.16 -10.400  19.66 -10.064  21.22  -9.801  22.53  -9.624
  250  16.46 -11.029  17.79 -10.538  19.31 -10.176  20.91  -9.887  22.30  -9.691
  260  16.19 -11.195  17.47 -10.672  18.98 -10.283  20.62  -9.969  22.09  -9.754
  270  15.91 -11.357  17.19 -10.800  18.67 -10.385  20.34 -10.049  21.89  -9.815
  280  15.63 -11.516  16.94 -10.925  18.38 -10.484  20.07 -10.126  21.69  -9.873
  290  15.32 -11.672  16.71 -11.046  18.11 -10.579  19.82 -10.200  21.50  -9.928
  300  14.96 -11.825  16.51 -11.165  17.86 -10.672  19.57 -10.272  21.32  -9.982
  310  14.55 -11.977  16.32 -11.281  17.63 -10.763  19.34 -10.343  21.13 -10.034
  320  14.06 -12.126  16.14 -11.396  17.42 -10.852  19.11 -10.411  20.96 -10.085
  330  13.48 -12.273  15.96 -11.509  17.22 -10.939  18.90 -10.478  20.78 -10.134
  340  12.82 -12.417  15.79 -11.620  17.04 -11.024  18.70 -10.544  20.61 -10.182
  350  12.06 -12.559  15.60 -11.730  16.87 -11.108  18.50 -10.608  20.45 -10.229
  360  11.21 -12.699  15.41 -11.838  16.72 -11.191  18.32 -10.671  20.28 -10.275
  370  10.31 -12.835  15.20 -11.946  16.57 -11.272  18.14 -10.733  20.12 -10.320
  380   9.36 -12.967  14.98 -12.052  16.43 -11.352  17.97 -10.794  19.97 -10.364
  390   8.41 -13.095  14.73 -12.157  16.30 -11.431  17.82 -10.854  19.82 -10.408
  400   7.50 -13.218  14.45 -12.261  16.16 -11.510  17.67 -10.913  19.67 -10.451
  410   6.64 -13.336  14.14 -12.364  16.04 -11.587  17.52 -10.971  19.52 -10.493
  420   5.86 -13.447  13.80 -12.466  15.91 -11.663  17.39 -11.028  19.38 -10.534
  430   5.18 -13.551  13.43 -12.566  15.78 -11.739  17.26 -11.084  19.25 -10.575
  440   4.59 -13.647  13.01 -12.665  15.64 -11.814  17.14 -11.140  19.11 -10.615
  450   4.10 -13.736  12.57 -12.763  15.50 -11.888  17.02 -11.194  18.98 -10.655
  460   3.69 -13.817  12.08 -12.859  15.36 -11.961  16.91 -11.248  18.86 -10.694
  470   3.35 -13.890  11.57 -12.953  15.20 -12.033  16.81 -11.302  18.74 -10.733
  480   3.07 -13.955  11.04 -13.046  15.03 -12.105  16.71 -11.354  18.62 -10.771
  490   2.85 -14.014  10.48 -13.136  14.86 -12.177  16.61 -11.406  18.50 -10.809
  500   2.66 -14.067   9.65 -13.223  14.81 -12.249  16.52 -11.458  18.39 -10.845
  510   2.51 -14.115   9.06 -13.309  14.63 -12.319  16.43 -11.509  18.28 -10.882
  520   2.39 -14.159   8.49 -13.393  14.44 -12.389  16.34 -11.560  18.18 -10.918
  530   2.28 -14.199   7.93 -13.473  14.24 -12.458  16.25 -11.610  18.08 -10.954
  540   2.19 -14.236   7.40 -13.551  14.02 -12.527  16.17 -11.660  17.98 -10.990
  550   2.11 -14.271   6.90 -13.626  13.79 -12.595  16.08 -11.709  17.88 -11.025
  560   2.04 -14.303   6.43 -13.698  13.54 -12.662  16.00 -11.758  17.79 -11.060
  570   1.98 -14.333   6.01 -13.766  13.28 -12.729  15.92 -11.806  17.70 -11.094
  580   1.93 -14.362   5.62 -13.831  13.00 -12.795  15.84 -11.854  17.61 -11.129
  590   1.88 -14.389   5.27 -13.892  12.70 -12.860  15.75 -11.902  17.52 -11.162
  600   1.84 -14.416   4.96 -13.950  12.40 -12.924  15.67 -11.950  17.44 -11.196
  610   1.80 -14.441   4.68 -14.005  12.07 -12.988  15.58 -11.997  17.36 -11.229
  620   1.76 -14.466   4.43 -14.056  11.74 -13.051  15.50 -12.043  17.29 -11.262
  630   1.72 -14.490   4.22 -14.104  11.39 -13.113  15.41 -12.090  17.21 -11.295
  640   1.69 -14.513   4.03 -14.149  11.04 -13.175  15.32 -12.136  17.14 -11.327
  650   1.66 -14.535   3.86 -14.191  10.68 -13.235  15.22 -12.182  17.07 -11.359
  660   1.63 -14.557   3.71 -14.231  10.32 -13.294  15.13 -12.227  17.00 -11.391
  670   1.60 -14.578   3.58 -14.269   9.95 -13.353  15.03 -12.272  16.93 -11.423
  680   1.57 -14.599   3.46 -14.304   9.58 -13.410  14.92 -12.317  16.86 -11.454
  690   1.54 -14.620   3.36 -14.337   9.22 -13.466  14.82 -12.362  16.80 -11.485
  700   1.52 -14.640   3.27 -14.369   8.86 -13.521  14.70 -12.406  16.74 -11.516
  710   1.49 -14.659   3.19 -14.399   8.51 -13.575  14.59 -12.450  16.68 -11.547
  720   1.47 -14.678   3.12 -14.428   8.17 -13.627  14.47 -12.494  16.62 -11.577
  730   1.45 -14.697   3.05 -14.455   7.84 -13.678  14.34 -12.538  16.56 -11.607
  740   1.43 -14.715   2.99 -14.482   7.53 -13.727  14.21 -12.581  16.50 -11.637
  750   1.41 -14.733   2.93 -14.508   7.22 -13.776  14.08 -12.624  16.45 -11.667
  760   1.39 -14.750   2.88 -14.532   6.93 -13.822  13.93 -12.667  16.39 -11.697
  770   1.37 -14.767   2.83 -14.556   6.66 -13.867  13.79 -12.709  16.34 -11.726
  780   1.35 -14.784   2.79 -14.580   6.41 -13.911  13.63 -12.751  16.28 -11.755
  790   1.33 -14.800   2.74 -14.602   6.16 -13.953  13.48 -12.793  16.23 -11.784
  800   1.32 -14.816   2.70 -14.625   5.94 -13.994  13.31 -12.834  16.18 -11.813
  810   1.30 -14.832   2.66 -14.647   5.73 -14.033  13.14 -12.876  16.12 -11.842
  820   1.29 -14.847   2.63 -14.668   5.53 -14.071  12.97 -12.917  16.07 -11.870
  830   1.28 -14.862   2.59 -14.689   5.35 -14.107  12.79 -12.957  16.02 -11.899
  840   1.26 -14.877   2.56 -14.710   5.19 -14.142  12.60 -12.997  15.97 -11.927
  850   1.25 -14.891   2.52 -14.730   5.03 -14.175  12.41 -13.037  15.92 -11.955
  860   1.24 -14.905   2.49 -14.750   4.89 -14.208  12.22 -13.077  15.87 -11.982
  870   1.23 -14.919   2.46 -14.770   4.76 -14.238  12.02 -13.116  15.82 -12.010
  880   1.22 -14.933   2.42 -14.789   4.64 -14.268  11.81 -13.155  15.76 -12.038
  890   1.21 -14.946   2.39 -14.808   4.53 -14.296  11.61 -13.194  15.71 -12.065
  900   1.20 -14.959   2.36 -14.827   4.43 -14.324  11.40 -13.232  15.66 -12.092
  910   1.19 -14.972   2.33 -14.846   4.34 -14.350  11.18 -13.270  15.61 -12.119
  920   1.18 -14.984   2.30 -14.865   4.26 -14.375  10.97 -13.307  15.56 -12.146
  930   1.17 -14.996   2.27 -14.883   4.18 -14.400  10.75 -13.344  15.50 -12.173
  940   1.16 -15.008   2.24 -14.901   4.11 -14.423  10.53 -13.380  15.45 -12.200
  950   1.15 -15.020   2.22 -14.919   4.05 -14.446  10.31 -13.417  15.40 -12.226
  960   1.15 -15.032   2.19 -14.937   3.99 -14.468  10.09 -13.452  15.34 -12.253
  970   1.14 -15.043   2.16 -14.954   3.93 -14.490   9.88 -13.488  15.29 -12.279
  980   1.13 -15.055   2.13 -14.972   3.88 -14.510   9.66 -13.522  15.23 -12.305
  990   1.13 -15.066   2.11 -14.989   3.83 -14.530   9.44 -13.557  15.17 -12.331
 1000   1.12 -15.077   2.08 -15.006   3.79 -14.550   9.23 -13.590  15.12 -12.357
 1010   1.12 -15.087   2.05 -15.022   3.75 -14.569   9.01 -13.624  15.06 -12.382
 1020   1.11 -15.098   2.03 -15.039   3.71 -14.588   8.81 -13.657  15.00 -12.408
 1030   1.10 -15.108   2.00 -15.055   3.68 -14.606   8.60 -13.689  14.94 -12.434
 1040   1.10 -15.118   1.98 -15.071   3.64 -14.623   8.40 -13.721  14.87 -12.459
 1050   1.10 -15.129   1.95 -15.087   3.61 -14.641   8.20 -13.752  14.81 -12.484
 1060   1.09 -15.139   1.93 -15.103   3.58 -14.658   8.01 -13.783  14.74 -12.509
 1070   1.09 -15.148   1.91 -15.119   3.56 -14.675   7.82 -13.813  14.68 -12.534
 1080   1.08 -15.158   1.88 -15.134   3.53 -14.691   7.63 -13.843  14.61 -12.559
 1090   1.08 -15.168   1.86 -15.150   3.51 -14.707   7.45 -13.872  14.54 -12.584
 1100   1.08 -15.177   1.84 -15.165   3.48 -14.723   7.28 -13.900  14.47 -12.609
 1110   1.07 -15.186   1.82 -15.180   3.46 -14.739   7.11 -13.928  14.40 -12.633
 1120   1.07 -15.196   1.79 -15.194   3.44 -14.755   6.95 -13.956  14.33 -12.657
 1130   1.07 -15.205   1.77 -15.209   3.42 -14.770   6.80 -13.982  14.26 -12.682
 1140   1.06 -15.214   1.75 -15.223   3.40 -14.785   6.65 -14.009  14.18 -12.706
 1150   1.06 -15.223   1.73 -15.237   3.38 -14.800   6.50 -14.034  14.10 -12.730
 1160   1.06 -15.232   1.71 -15.251   3.36 -14.815   6.36 -14.059  14.02 -12.754
 1170   1.06 -15.240   1.69 -15.265   3.34 -14.830   6.23 -14.084  13.94 -12.778
 1180   1.05 -15.249   1.68 -15.279   3.32 -14.844   6.10 -14.108  13.86 -12.802
 1190   1.05 -15.258   1.66 -15.292   3.30 -14.859   5.98 -14.131  13.78 -12.825
 1200   1.05 -15.266   1.64 -15.306   3.28 -14.873   5.86 -14.154  13.69 -12.849
 1210   1.05 -15.275   1.62 -15.319   3.27 -14.887   5.75 -14.177  13.60 -12.872
 1220   1.05 -15.283   1.60 -15.332   3.25 -14.901   5.65 -14.198  13.52 -12.895
 1230   1.04 -15.291   1.59 -15.344   3.23 -14.915   5.55 -14.220  13.43 -12.918
 1240   1.04 -15.299   1.57 -15.357   3.21 -14.929   5.45 -14.240  13.34 -12.941
 1250   1.04 -15.308   1.55 -15.369   3.20 -14.943   5.36 -14.261  13.24 -12.964
 1260   1.04 -15.316   1.54 -15.382   3.18 -14.957   5.27 -14.280  13.15 -12.987
 1270   1.04 -15.324   1.52 -15.394   3.16 -14.970   5.19 -14.300  13.05 -13.010
 1280   1.04 -15.332   1.51 -15.406   3.15 -14.984   5.11 -14.318  12.95 -13.032
 1290   1.03 -15.340   1.49 -15.417   3.13 -14.997   5.04 -14.337  12.85 -13.055
 1300   1.03 -15.347   1.48 -15.429   3.11 -15.011   4.97 -14.355  12.75 -13.077
 1310   1.03 -15.355   1.47 -15.441   3.10 -15.024   4.90 -14.372  12.65 -13.099
 1320   1.03 -15.363   1.45 -15.452   3.08 -15.037   4.84 -14.389  12.55 -13.121
 1330   1.03 -15.371   1.44 -15.463   3.06 -15.050   4.78 -14.406  12.44 -13.143
 1340   1.03 -15.378   1.43 -15.474   3.05 -15.063   4.72 -14.422  12.34 -13.165
 1350   1.03 -15.386   1.42 -15.485   3.03 -15.076   4.67 -14.438  12.23 -13.186
 1360   1.03 -15.393   1.40 -15.496   3.01 -15.089   4.62 -14.453  12.12 -13.208
 1370   1.03 -15.401   1.39 -15.506   3.00 -15.102   4.57 -14.469  12.01 -13.229
 1380   1.03 -15.408   1.38 -15.516   2.98 -15.115   4.52 -14.483  11.90 -13.251
 1390   1.02 -15.416   1.37 -15.527   2.96 -15.127   4.48 -14.498  11.79 -13.272
 1400   1.02 -15.423   1.36 -15.537   2.95 -15.140   4.44 -14.512  11.68 -13.293
 1410   1.02 -15.431   1.35 -15.547   2.93 -15.153   4.40 -14.526  11.57 -13.314
 1420   1.02 -15.438   1.34 -15.557   2.91 -15.165   4.37 -14.540  11.45 -13.334
 1430   1.02 -15.445   1.33 -15.566   2.90 -15.178   4.33 -14.553  11.34 -13.355
 1440   1.02 -15.452   1.32 -15.576   2.88 -15.190   4.30 -14.566  11.22 -13.375
 1450   1.02 -15.460   1.31 -15.585   2.86 -15.202   4.27 -14.579  11.11 -13.396
 1460   1.02 -15.467   1.30 -15.595   2.85 -15.215   4.24 -14.591  10.99 -13.416
 1470   1.02 -15.474   1.29 -15.604   2.83 -15.227   4.21 -14.604  10.88 -13.436
 1480   1.02 -15.481   1.28 -15.613   2.81 -15.239   4.19 -14.616  10.76 -13.456
 1490   1.02 -15.488   1.28 -15.622   2.80 -15.251   4.16 -14.628  10.64 -13.476
 1500   1.02 -15.495   1.27 -15.631   2.78 -15.263   4.14 -14.640  10.52 -13.495
 1510   1.02 -15.502   1.26 -15.639   2.76 -15.275   4.12 -14.651  10.41 -13.515
 1520   1.02 -15.509   1.25 -15.648   2.75 -15.287   4.09 -14.663  10.29 -13.534
 1530   1.02 -15.516   1.25 -15.656   2.73 -15.298   4.07 -14.674  10.17 -13.553
 1540   1.02 -15.523   1.24 -15.665   2.71 -15.310   4.06 -14.685  10.06 -13.572
 1550   1.02 -15.530   1.23 -15.673   2.70 -15.322   4.04 -14.696   9.94 -13.591
 1560   1.02 -15.537   1.23 -15.681   2.68 -15.334   4.02 -14.706   9.82 -13.610
 1570   1.02 -15.544   1.22 -15.689   2.66 -15.345   4.00 -14.717   9.71 -13.628
 1580   1.01 -15.551   1.21 -15.697   2.64 -15.357   3.99 -14.728   9.59 -13.647
 1590   1.01 -15.557   1.21 -15.705   2.63 -15.368   3.97 -14.738   9.48 -13.665
 1600   1.01 -15.564   1.20 -15.713   2.61 -15.379   3.96 -14.748   9.37 -13.683
 1610   1.01 -15.571   1.19 -15.721   2.59 -15.391   3.95 -14.758   9.25 -13.701
 1620   1.01 -15.578   1.19 -15.728   2.58 -15.402   3.93 -14.768   9.14 -13.719
 1630   1.01 -15.584   1.18 -15.736   2.56 -15.413   3.92 -14.778   9.03 -13.736
 1640   1.01 -15.591   1.18 -15.743   2.54 -15.424   3.91 -14.788   8.92 -13.754
 1650   1.01 -15.598   1.17 -15.750   2.53 -15.435   3.90 -14.798   8.81 -13.771
 1660   1.01 -15.604   1.17 -15.758   2.51 -15.446   3.89 -14.807   8.70 -13.788
 1670   1.01 -15.611   1.16 -15.765   2.49 -15.457   3.87 -14.817   8.60 -13.805
 1680   1.01 -15.617   1.16 -15.772   2.48 -15.468   3.86 -14.826   8.49 -13.822
 1690   1.01 -15.624   1.15 -15.779   2.46 -15.479   3.85 -14.835   8.39 -13.839
 1700   1.01 -15.631   1.15 -15.786   2.44 -15.490   3.85 -14.845   8.28 -13.855
 1710   1.01 -15.637   1.15 -15.792   2.43 -15.500   3.84 -14.854   8.18 -13.871
 1720   1.01 -15.644   1.14 -15.799   2.41 -15.511   3.83 -14.863   8.08 -13.888
 1730   1.01 -15.650   1.14 -15.806   2.40 -15.522   3.82 -14.872   7.98 -13.904
 1740   1.01 -15.657   1.13 -15.812   2.38 -15.532   3.81 -14.881   7.88 -13.919
 1750   1.01 -15.663   1.13 -15.819   2.36 -15.543   3.80 -14.890   7.79 -13.935
 1760   1.01 -15.669   1.13 -15.825   2.35 -15.553   3.79 -14.899   7.69 -13.950
 1770   1.01 -15.676   1.12 -15.832   2.33 -15.563   3.79 -14.908   7.60 -13.966
 1780   1.01 -15.682   1.12 -15.838   2.31 -15.573   3.78 -14.916   7.51 -13.981
 1790   1.01 -15.689   1.12 -15.844   2.30 -15.584   3.77 -14.925   7.42 -13.996
 1800   1.01 -15.695   1.11 -15.851   2.28 -15.594   3.77 -14.934   7.33 -14.011
 1810   1.01 -15.701   1.11 -15.857   2.27 -15.604   3.76 -14.942   7.24 -14.025
 1820   1.01 -15.708   1.11 -15.863   2.25 -15.614   3.75 -14.951   7.16 -14.040
 1830   1.01 -15.714   1.10 -15.869   2.24 -15.624   3.74 -14.959   7.07 -14.054
 1840   1.01 -15.720   1.10 -15.875   2.22 -15.634   3.74 -14.968   6.99 -14.068
 1850   1.01 -15.727   1.10 -15.881   2.21 -15.643   3.73 -14.976   6.91 -14.082
 1860   1.01 -15.733   1.10 -15.887   2.19 -15.653   3.73 -14.985   6.83 -14.096
 1870   1.01 -15.739   1.09 -15.892   2.18 -15.663   3.72 -14.993   6.76 -14.109
 1880   1.01 -15.745   1.09 -15.898   2.16 -15.673   3.71 -15.001   6.68 -14.123
 1890   1.01 -15.751   1.09 -15.904   2.15 -15.682   3.71 -15.009   6.61 -14.136
 1900   1.01 -15.758   1.09 -15.910   2.13 -15.692   3.70 -15.018   6.54 -14.149
 1910   1.01 -15.764   1.08 -15.915   2.12 -15.701   3.70 -15.026   6.46 -14.162
 1920   1.01 -15.770   1.08 -15.921   2.10 -15.710   3.69 -15.034   6.40 -14.175
 1930   1.01 -15.776   1.08 -15.926   2.09 -15.720   3.68 -15.042   6.33 -14.187
 1940   1.01 -15.782   1.08 -15.932   2.07 -15.729   3.68 -15.050   6.26 -14.200
 1950   1.01 -15.788   1.08 -15.937   2.06 -15.738   3.67 -15.058   6.20 -14.212
 1960   1.01 -15.794   1.07 -15.943   2.04 -15.747   3.67 -15.066   6.14 -14.224
 1970   1.01 -15.800   1.07 -15.948   2.03 -15.756   3.66 -15.074   6.07 -14.236
 1980   1.01 -15.806   1.07 -15.953   2.02 -15.765   3.66 -15.082   6.01 -14.248
 1990   1.01 -15.812   1.07 -15.958   2.00 -15.774   3.65 -15.090   5.96 -14.260
 2000   1.01 -15.818   1.07 -15.964   1.99 -15.783   3.65 -15.098   5.90 -14.271
